tempo (t);rugosidade (w)
0;0.0
1;1.4040185032707175
2;1.6865563153574075
3;1.959298527101233
4;2.177621690596854
5;2.407047740642864
6;2.627866805515986
7;2.8133704149680705
8;2.9886313843514216
9;3.1301160495176283
10;3.29934788097969
11;3.439310536197226
12;3.612214686402524
13;3.754322929915086
14;3.883210710431703
15;3.9512962475910807
16;4.049968962180865
17;4.1443353270380605
18;4.2044858706626815
19;4.342316798439946
20;4.438207852772304
21;4.575004735767201
22;4.7026511852245445
23;4.82006010210273
24;4.924666718273553
25;5.034794611204549
26;5.12991739379963
27;5.199577170143965
28;5.2588226334721115
29;5.3680294487268325
30;5.432338912357485
31;5.510083879558926
32;5.640156726108379
33;5.719008488251663
34;5.846036256520708
35;5.928050808108033
36;5.995521959993726
37;6.114256693636414
38;6.159345666391941
39;6.268906444308713
40;6.400441115341633
41;6.460469329702369
42;6.536115015841773
43;6.5763188805545525
44;6.679791369648922
45;6.731951835485971
46;6.819434329337178
47;6.860891349247824
48;6.949896534219216
49;7.033070804912189
50;7.096726202852347
51;7.173150715899141
52;7.263317261346611
53;7.313195145453034
54;7.375195187922996
55;7.423311863690558
56;7.522441960018624
57;7.596310620334033
58;7.648590518156171
59;7.754267830137901
60;7.837512894392512
61;7.907491368168793
62;7.99820404575468
63;8.060049457150848
64;8.109725348107444
65;8.194085403676745
66;8.251436003958364
67;8.270565191970157
68;8.354347852763368
69;8.394028394017694
70;8.472979427996858
71;8.50997871113436
72;8.57585472109787
73;8.582843890239548
74;8.661804558728884
75;8.72503129753903
76;8.78339527060579
77;8.81661312994242
78;8.850129773165692
79;8.894411498382615
80;8.952368928479503
81;9.035498041583697
82;9.062486942418817
83;9.100658561806853
84;9.138055589813591
85;9.180676553841693
86;9.277995432768247
87;9.336916714923166
88;9.407095279574914
89;9.430372079166881
90;9.53248170050137
91;9.588471633025732
92;9.681111638051037
93;9.711773829001782
94;9.797576469952768
95;9.830607787369091
96;9.866377710147754
97;9.872136955591543
98;9.900756758185686
99;9.928916626910254
100;10.01560306768864
101;10.066673422927385
102;10.12661874692
103;10.15175298628596
104;10.148245326065055
105;10.193628216433329
106;10.217191669998492
107;10.286161665017506
108;10.357989430114008
109;10.423691364457294
110;10.47491873707893
111;10.538706504631191
112;10.560080631115712
113;10.627648290303268
114;10.701211498951144
115;10.769981647364686
116;10.820262298224268
117;10.824763983705864
118;10.865712594263515
119;10.900148701917903
120;10.973365062140607
121;11.011095420575755
122;11.041514981732245
123;11.059094007866477
124;11.116104090177467
125;11.201075169237468
126;11.228365970768701
127;11.271616750045224
128;11.319283154998624
129;11.358889020284535
130;11.401315987468122
131;11.438726861188353
132;11.476995430422166
133;11.521752503938961
134;11.558719544203912
135;11.624673838385508
136;11.695330778722557
137;11.700296552347165
138;11.697093068732435
139;11.71390158395361
140;11.742553822256133
141;11.81974760640326
142;11.87026476153994
143;11.881625177746507
144;11.882203426809248
145;11.91700426411167
146;11.97279865185147
147;12.01498127924206
148;12.057482560486651
149;12.10215729190673
150;12.071461174633885
151;12.096736878103272
152;12.089040881377034
153;12.145022088248645
154;12.235049641303943
155;12.246785706866365
156;12.290010060327377
157;12.311387760205433
158;12.373027827253573
159;12.467221231963471
160;12.477087057346443
161;12.49819474784371
162;12.536617197963325
163;12.55852010521062
164;12.578051136543532
165;12.602509094534563
166;12.661696209658638
167;12.6865344914056
168;12.735231983221132
169;12.782278097199796
170;12.817461543719745
171;12.818825943252287
172;12.906960582581974
173;12.929009066933242
174;12.941370699341082
175;12.977855544769787
176;13.011262118307563
177;13.039937692167674
178;13.063674358986887
179;13.063769984048532
180;13.107683544206642
181;13.156388881252836
182;13.2127642561254
183;13.267581996824948
184;13.317625559044606
185;13.420643760664234
186;13.476330836581202
187;13.543554097392857
188;13.59671672900739
189;13.639051842614338
190;13.654704981979998
191;13.682488569028624
192;13.693896386751765
193;13.767000165850254
194;13.848425477103099
195;13.900512035648784
196;13.92654953716975
197;13.942238297509286
198;13.99031520107246
199;14.031996985919964
200;14.082783709262662
201;14.136746275326827
202;14.143416396256645
203;14.132283046625243
204;14.159967675533105
205;14.208670629208918
206;14.267411314215147
207;14.314177943340965
208;14.339202977719067
209;14.384824399931492
210;14.43510538004198
211;14.457242737906865
212;14.507229669360559
213;14.558203415800149
214;14.570426012256414
215;14.607973146550602
216;14.664049697441847
217;14.686905196801591
218;14.679248100533005
219;14.749501097862685
220;14.746832942156091
221;14.825531264147328
222;14.86924060106861
223;14.879822556080338
224;14.865417488311971
225;14.959282650385216
226;14.981104067310184
227;15.004767095918158
228;15.024236093929074
229;15.05882697394971
230;15.117487009803176
231;15.219403112657178
232;15.251954339707163
233;15.317950262676916
234;15.322312707561718
235;15.345653108671122
236;15.378180800148264
237;15.398070078703276
238;15.396569132012884
239;15.396204014746953
240;15.409667058399357
241;15.445497657127376
242;15.475878351269289
243;15.501163543602027
244;15.491207637034513
245;15.48205223110605
246;15.535617235024949
247;15.552253201312226
248;15.592964348201155
249;15.594085907899046
250;15.620979182844323
251;15.624937226607194
252;15.686338379069246
253;15.760227140663192
254;15.782088852387684
255;15.81920811574079
256;15.890789054182369
257;15.97964820567131
258;16.037627522942635
259;16.073612672942417
260;16.114440821763758
261;16.12846615032792
262;16.184214361637554
263;16.197099546799095
264;16.218680479687183
265;16.270281150599406
266;16.291726804534225
267;16.305484720792954
268;16.345657288096053
269;16.380584476221713
270;16.42551754080972
271;16.460540896971217
272;16.499503143958655
273;16.518760746182853
274;16.59571823800052
275;16.609299563196892
276;16.678463449478873
277;16.702750860892625
278;16.75666311950822
279;16.779683441285666
280;16.786159195514745
281;16.82418175774424
282;16.82882183108375
283;16.85485675191042
284;16.8832564182076
285;16.924825521277064
286;17.003765611531247
287;17.012689535952884
288;17.01415804605799
289;17.04929107166105
290;17.066025291144282
291;17.071733873250853
292;17.07985433514968
293;17.11423207195891
294;17.122295899337207
295;17.139396158764477
296;17.185943444933194
297;17.173145516202748
298;17.20704647723445
299;17.251818287606877
300;17.273419409997516
301;17.341951604320542
302;17.35610061641498
303;17.414877297312483
304;17.42090181685293
305;17.439858287535458
306;17.449275106688727
307;17.470024296117426
308;17.465089654854122
309;17.473492014277422
310;17.482461989140685
311;17.50977241196472
312;17.551850553114072
313;17.57713437159345
314;17.577063300750098
315;17.607739199005287
316;17.651388551651515
317;17.670345195069885
318;17.714757043614895
319;17.758987484572472
320;17.801002856182606
321;17.790683860657417
322;17.817521852011524
323;17.88047623403883
324;17.902156169099037
325;17.923984120328377
326;17.94550707655967
327;17.99503713941623
328;18.023615572383413
329;18.070443047419833
330;18.132932690825793
331;18.146396135102624
332;18.15007876430653
333;18.193559890427462
334;18.220455794769357
335;18.250187168018517
336;18.266163172703855
337;18.264179760833496
338;18.282296041038375
339;18.317008612139407
340;18.38572756620372
341;18.436107742879408
342;18.51514902142153
343;18.49439032393583
344;18.536491012677818
345;18.57926954200712
346;18.635495671920392
347;18.68182588409181
348;18.690015438110986
349;18.68443356016138
350;18.706483960411944
351;18.74144401913973
352;18.774808696735118
353;18.810471919687426
354;18.842056961911098
355;18.892410460734343
356;18.92580602422149
357;18.943652268615036
358;18.927984101223377
359;18.972777105120237
360;19.001265614181126
361;19.024459091461004
362;19.056050006463682
363;19.06968057026238
364;19.111886611970885
365;19.15161898329875
366;19.168049357652155
367;19.207893182873338
368;19.2167036439178
369;19.21517591993315
370;19.23600101802663
371;19.26377602738438
372;19.244214393752983
373;19.288273032522618
374;19.323861356853943
375;19.388077883650197
376;19.417597638835502
377;19.438366538663757
378;19.475348373099553
379;19.491762221601086
380;19.53890719669282
381;19.53190506396797
382;19.595694819662153
383;19.610574720019528
384;19.61965005631579
385;19.688993491531164
386;19.74699433165187
387;19.799873184913668
388;19.844460772729494
389;19.91440145683859
390;19.886530081962814
391;19.9193564661044
392;19.920422572772555
393;19.971059636024172
394;19.987660153229527
395;20.017138191101367
396;20.047414128553434
397;20.06090040780243
398;20.11435141986559
399;20.146310551983568
400;20.183047412945456
401;20.22169446215313
402;20.23957076766854
403;20.281159276813856
404;20.266371070748313
405;20.25040001609826
406;20.322447535394375
407;20.323000757150517
408;20.366995137799794
409;20.320449664768457
410;20.38698069568716
411;20.424538523337997
412;20.462271615102235
413;20.45699011883343
414;20.528860262693513
415;20.528951540273816
416;20.547259703526706
417;20.603390199071377
418;20.624358108990204
419;20.64784592969784
420;20.68052096860212
421;20.680218938406146
422;20.694681233481294
423;20.686228510020126
424;20.681578039553006
425;20.693111703052978
426;20.678134809817635
427;20.701953849619006
428;20.72884938321541
429;20.735567815762813
430;20.730898283967637
431;20.78268630299677
432;20.76452555559678
433;20.7761033631346
434;20.727433112854207
435;20.717546658274692
436;20.748245562969576
437;20.766901787913188
438;20.794734595161295
439;20.811188313635743
440;20.820340316459568
441;20.820490315777427
442;20.89081098856983
443;20.895056183029098
444;20.962266447497157
445;21.002632118440793
446;21.039833135947326
447;21.09376467542923
448;21.098501919815593
449;21.14643628711991
450;21.18984117789194
451;21.213056213186494
452;21.22094589455399
453;21.25376845006949
454;21.277354073692155
455;21.297951739130305
456;21.26684217014996
457;21.30622040877811
458;21.38145857438799
459;21.416251775227558
460;21.434880246761452
461;21.440474371773956
462;21.43269464510135
463;21.46970324437727
464;21.532973712470284
465;21.569491721915618
466;21.601871434417014
467;21.63951436923123
468;21.649441414365146
469;21.63766697462863
470;21.657287484511034
471;21.62712803594303
472;21.65492242445685
473;21.69748284994679
474;21.761813221290318
475;21.79468100076362
476;21.79545477489452
477;21.783185786533117
478;21.820601809652622
479;21.840143774136497
480;21.862011179029366
481;21.898436851512088
482;21.93095747317462
483;21.981679953804832
484;21.987078142552747
485;22.006614189430604
486;22.037161278207975
487;22.01870194806738
488;22.05645473558275
489;22.085801680097376
490;22.066675409941574
491;22.10318768150756
492;22.137072271859235
493;22.123665827151708
494;22.108782216419492
495;22.093436243528206
496;22.11906342718177
497;22.17259536024976
498;22.1517394976843
499;22.155884049192196
500;22.18692943157072
501;22.233388130976255
502;22.258994490490135
503;22.27279622303303
504;22.291801682145444
505;22.35280117065623
506;22.359618280931294
507;22.351264239787465
508;22.38265255818191
509;22.382987427310567
510;22.428650144022225
511;22.450639867962547
512;22.46051431535865
513;22.477666061676917
514;22.5016065773846
515;22.53896618917895
516;22.534781223078635
517;22.571726190867142
518;22.610627472569405
519;22.64096655723528
520;22.6102407248127
521;22.664899932371412
522;22.684540600618007
523;22.704879547752533
524;22.694836202451206
525;22.712718524227224
526;22.692304027713803
527;22.733389444333472
528;22.784518670976627
529;22.84373770379587
530;22.808274028242643
531;22.827353546924297
532;22.813695657576552
533;22.863661848101014
534;22.85696774270388
535;22.85841602147048
536;22.918861307288715
537;22.993875294561295
538;23.01426654728663
539;23.006964700597532
540;23.0300295502811
541;23.043776062973592
542;23.068807810902683
543;23.154479454324804
544;23.18833625260009
545;23.205515293513233
546;23.291139983884577
547;23.299237454448498
548;23.3302338740338
549;23.37201516914691
550;23.377386212612958
551;23.397363144672365
552;23.40416956504453
553;23.417776470893312
554;23.43246838557239
555;23.430735698871707
556;23.473775019773676
557;23.49534486831273
558;23.50337198554323
559;23.522471879522424
560;23.487235227105096
561;23.47499899390621
562;23.492633103138434
563;23.542484886442153
564;23.51498253237314
565;23.54009696022808
566;23.562878521572042
567;23.534497649997256
568;23.55487168321008
569;23.55253805260805
570;23.56168562214198
571;23.59561991557966
572;23.626174625198264
573;23.625064237211443
574;23.64041997489959
575;23.677196180885364
576;23.723395631998063
577;23.725975718558477
578;23.718576963885397
579;23.753970048537848
580;23.800676563323886
581;23.816469823490145
582;23.825332546591092
583;23.825175248887987
584;23.83628839809434
585;23.874672772626646
586;23.92936722659177
587;23.930228584364535
588;23.945492965361012
589;23.96874917292157
590;23.979926020893398
591;23.946379826776422
592;23.958166747558337
593;24.014075614267252
594;24.029390706776425
595;24.013945563183807
596;24.037083571709655
597;24.03822689550594
598;24.073435433409184
599;24.0618347714206
600;24.079376336857592
601;24.090579641902
602;24.10252927705991
603;24.12827473057447
604;24.17766841981694
605;24.164773738209576
606;24.163196962433314
607;24.18415192326052
608;24.22935897526552
609;24.255304577038853
610;24.273246711838762
611;24.378777594495457
612;24.38466972149937
613;24.413264741026094
614;24.48227188144927
615;24.54497840744337
616;24.581671797952655
617;24.57404774575951
618;24.619249234175804
619;24.592519289346445
620;24.624449695338395
621;24.631500273966434
622;24.65902386224667
623;24.672090607924705
624;24.741587633998815
625;24.78799552300911
626;24.753197763123705
627;24.742799380309943
628;24.784114716609736
629;24.793639247960883
630;24.851614601114424
631;24.875028052489053
632;24.886525732273487
633;24.90065206885336
634;24.91201255958447
635;24.91241371839955
636;24.917979130489954
637;24.9110096342837
638;24.924570780800227
639;24.92386909106323
640;24.926049276653554
641;24.936897250303712
642;24.958103557096855
643;24.956476792934982
644;24.956877237028472
645;24.94874195569323
646;24.974965604243916
647;24.981167172575923
648;25.04329792116585
649;25.087778441066824
650;25.114180231883942
651;25.17853799896147
652;25.252602663620554
653;25.274582037874666
654;25.26405212537923
655;25.29009701188799
656;25.319914370119445
657;25.329582658454278
658;25.313425668024337
659;25.338902157027697
660;25.38645711539826
661;25.444088193232812
662;25.433800367312337
663;25.444775536908804
664;25.44833469823083
665;25.46766820250147
666;25.495734539333974
667;25.544562475798053
668;25.576110222552945
669;25.64067271814647
670;25.69700449420157
671;25.72212535283745
672;25.716418221559522
673;25.751976085919967
674;25.768367129771065
675;25.809662208859212
676;25.831095051899414
677;25.869537672480398
678;25.89429818176284
679;25.93344193061383
680;25.919035037288904
681;25.921035134827502
682;25.94837039769675
683;25.966898642489184
684;26.004564054319683
685;26.04577242254145
686;26.06161919380918
687;26.06322490967047
688;26.07970773470813
689;26.09299661221133
690;26.078965273404116
691;26.097999138355586
692;26.139179684018472
693;26.14058948242072
694;26.147876211195957
695;26.172015417342653
696;26.188334367889784
697;26.254484165343207
698;26.272011977894763
699;26.286676884621173
700;26.350896927703257
701;26.36660769323993
702;26.315934711456933
703;26.345634215626887
704;26.37425826564769
705;26.401076956437073
706;26.44743056301281
707;26.493443734241833
708;26.49874780490547
709;26.513310859209035
710;26.562196465547206
711;26.562713790152618
712;26.601836664576272
713;26.65634820146697
714;26.696316537625126
715;26.72112906088681
716;26.688922110079236
717;26.72339635141187
718;26.736295210331896
719;26.74869748210895
720;26.800370101950065
721;26.822105792620587
722;26.83600460269007
723;26.84152022511026
724;26.89733413157118
725;26.912354565001458
726;26.950320965155907
727;26.965057084313298
728;26.961999306818143
729;26.996518155211877
730;26.998299620272544
731;27.026024425585465
732;27.005239272359756
733;27.01238525013917
734;27.029167395032854
735;27.061846487082946
736;27.076706455544038
737;27.08254206951238
738;27.082565132685385
739;27.067985289041093
740;27.102645703370428
741;27.116193409738646
742;27.138942014040897
743;27.146489967425442
744;27.153161715176804
745;27.14237107011715
746;27.166822179966157
747;27.179441655772663
748;27.18008511499207
749;27.204548247428377
750;27.190424334962167
751;27.2154978444851
752;27.26944692857065
753;27.31057639012356
754;27.3282725112834
755;27.343672983294766
756;27.364109768734536
757;27.43550725043542
758;27.475296950823207
759;27.498293627146158
760;27.50267717364396
761;27.54227912297646
762;27.54388922889869
763;27.56886783047304
764;27.59959535862845
765;27.614301665345614
766;27.624523589743134
767;27.670046626718882
768;27.681737226736125
769;27.73509469654572
770;27.761386238736616
771;27.81721816579522
772;27.84879311480626
773;27.865452586403414
774;27.863054057059742
775;27.91346939904314
776;27.95970599408107
777;27.93791635964332
778;27.9915888142721
779;28.02564186818337
780;28.058696396533275
781;28.090689217907048
782;28.07340694303297
783;28.11480434949252
784;28.091267334124083
785;28.122734484366934
786;28.16680926702245
787;28.17598837750584
788;28.20488083533886
789;28.217500915235416
790;28.225313679254608
791;28.262577142014266
792;28.256675762937288
793;28.294736788293342
794;28.311376533546277
795;28.28416083082208
796;28.287826432890068
797;28.308684824223143
798;28.35524620785028
799;28.325603040936823
800;28.31731062794012
801;28.34835060257159
802;28.342004282438882
803;28.407602504874518
804;28.439927594387722
805;28.45753600371742
806;28.461640138972573
807;28.484564126980423
808;28.49699459262314
809;28.51759048194097
810;28.54418974624838
811;28.57356242589351
812;28.59460557225094
813;28.649402390611275
814;28.669518424553544
815;28.76044198392222
816;28.765936028187294
817;28.780957859154782
818;28.765414899077197
819;28.793108516860595
820;28.830374710256393
821;28.846986967260882
822;28.854521056225053
823;28.874450926421286
824;28.86086288766956
825;28.87689522916552
826;28.92873925749457
827;28.962747185775694
828;28.959598383582833
829;28.97617966765835
830;28.976373670726275
831;29.013296828858493
832;29.00879704604645
833;29.013727393497888
834;29.027286910493977
835;29.06481159330649
836;29.09316487336041
837;29.134313872939767
838;29.18867525724582
839;29.21408625522404
840;29.244644282979
841;29.260594423366463
842;29.27461567720565
843;29.291210552232908
844;29.33112345696922
845;29.320942625574258
846;29.378764526810837
847;29.423314188986854
848;29.404329882945543
849;29.424545409906294
850;29.4535279051375
851;29.476549291787116
852;29.51092070699237
853;29.560469577612757
854;29.556348960884257
855;29.620944866188374
856;29.671278360146477
857;29.674646326508643
858;29.685021470224594
859;29.692889850647717
860;29.70245953512903
861;29.70485673133447
862;29.742051568113535
863;29.766129844947656
864;29.784023736833767
865;29.786120792746324
866;29.814542310201087
867;29.845908657389863
868;29.79964325774001
869;29.847310787978934
870;29.885477851015036
871;29.896552854461962
872;29.9299202291273
873;29.941312573530553
874;29.954452202398624
875;30.0032686122756
876;29.97039972143908
877;30.027740661665213
878;30.038388929735664
879;30.069646410092396
880;30.093981460997988
881;30.135836550478018
882;30.197993323224832
883;30.19685569213197
884;30.204466662581847
885;30.230015569780257
886;30.270857222779036
887;30.26528552331235
888;30.289566501531812
